# Pulseq sequence file
# Created by MRIzero/IMR/GPI pulseq converter
# MRZero Version: 0.5, git hash: # experiment_id: seq220607
#Y:\pulseq_zero\sequences\seq220607\params_centric_model64_TF128_R2_TE100_mean4.seq

[DEFINITIONS]
FOV 200 200 8 

[VERSION]
major 1
minor 2
revision 0

# Format of blocks:
#  #  D RF  GX  GY  GZ ADC
[BLOCKS]
  1  1  0   0   0   0  0
  2  0  1   0   0   1  0
  3  0  0   0   0   2  0
  4  2  0   0   0   0  0
  5  0  0   3   0   0  0
  6  0  2   0   0   1  0
  7  3  0   0   0   0  0
  8  0  0   4   0   0  0
  9  0  0   5   0   0  1
 10  0  0   6   0   0  0
 11  4  0   0   0   0  0
 12  0  2   0   0   1  0
 13  3  0   0   0   0  0
 14  0  0   4   7   0  0
 15  0  0   5   0   0  1
 16  0  0   6   8   0  0
 17  4  0   0   0   0  0
 18  0  2   0   0   1  0
 19  3  0   0   0   0  0
 20  0  0   4   8   0  0
 21  0  0   5   0   0  1
 22  0  0   6   7   0  0
 23  4  0   0   0   0  0
 24  0  2   0   0   1  0
 25  3  0   0   0   0  0
 26  0  0   4   9   0  0
 27  0  0   5   0   0  1
 28  0  0   6  10   0  0
 29  4  0   0   0   0  0
 30  0  2   0   0   1  0
 31  3  0   0   0   0  0
 32  0  0   4  10   0  0
 33  0  0   5   0   0  1
 34  0  0   6   9   0  0
 35  4  0   0   0   0  0
 36  0  2   0   0   1  0
 37  3  0   0   0   0  0
 38  0  0   4  11   0  0
 39  0  0   5   0   0  1
 40  0  0   6  12   0  0
 41  4  0   0   0   0  0
 42  0  2   0   0   1  0
 43  3  0   0   0   0  0
 44  0  0   4  12   0  0
 45  0  0   5   0   0  1
 46  0  0   6  11   0  0
 47  4  0   0   0   0  0
 48  0  2   0   0   1  0
 49  3  0   0   0   0  0
 50  0  0   4  13   0  0
 51  0  0   5   0   0  1
 52  0  0   6  14   0  0
 53  4  0   0   0   0  0
 54  0  2   0   0   1  0
 55  3  0   0   0   0  0
 56  0  0   4  14   0  0
 57  0  0   5   0   0  1
 58  0  0   6  13   0  0
 59  4  0   0   0   0  0
 60  0  2   0   0   1  0
 61  3  0   0   0   0  0
 62  0  0   4  15   0  0
 63  0  0   5   0   0  1
 64  0  0   6  16   0  0
 65  4  0   0   0   0  0
 66  0  2   0   0   1  0
 67  3  0   0   0   0  0
 68  0  0   4  16   0  0
 69  0  0   5   0   0  1
 70  0  0   6  15   0  0
 71  4  0   0   0   0  0
 72  0  2   0   0   1  0
 73  3  0   0   0   0  0
 74  0  0   4  17   0  0
 75  0  0   5   0   0  1
 76  0  0   6  18   0  0
 77  4  0   0   0   0  0
 78  0  2   0   0   1  0
 79  3  0   0   0   0  0
 80  0  0   4  18   0  0
 81  0  0   5   0   0  1
 82  0  0   6  17   0  0
 83  4  0   0   0   0  0
 84  0  2   0   0   1  0
 85  3  0   0   0   0  0
 86  0  0   4  19   0  0
 87  0  0   5   0   0  1
 88  0  0   6  20   0  0
 89  4  0   0   0   0  0
 90  0  2   0   0   1  0
 91  3  0   0   0   0  0
 92  0  0   4  20   0  0
 93  0  0   5   0   0  1
 94  0  0   6  19   0  0
 95  4  0   0   0   0  0
 96  0  2   0   0   1  0
 97  3  0   0   0   0  0
 98  0  0   4  21   0  0
 99  0  0   5   0   0  1
100  0  0   6  22   0  0
101  4  0   0   0   0  0
102  0  2   0   0   1  0
103  3  0   0   0   0  0
104  0  0   4  22   0  0
105  0  0   5   0   0  1
106  0  0   6  21   0  0
107  4  0   0   0   0  0
108  0  2   0   0   1  0
109  3  0   0   0   0  0
110  0  0   4  23   0  0
111  0  0   5   0   0  1
112  0  0   6  24   0  0
113  4  0   0   0   0  0
114  0  2   0   0   1  0
115  3  0   0   0   0  0
116  0  0   4  24   0  0
117  0  0   5   0   0  1
118  0  0   6  23   0  0
119  4  0   0   0   0  0
120  0  2   0   0   1  0
121  3  0   0   0   0  0
122  0  0   4  25   0  0
123  0  0   5   0   0  1
124  0  0   6  26   0  0
125  4  0   0   0   0  0
126  0  2   0   0   1  0
127  3  0   0   0   0  0
128  0  0   4  26   0  0
129  0  0   5   0   0  1
130  0  0   6  25   0  0
131  4  0   0   0   0  0
132  0  2   0   0   1  0
133  3  0   0   0   0  0
134  0  0   4  27   0  0
135  0  0   5   0   0  1
136  0  0   6  28   0  0
137  4  0   0   0   0  0
138  0  2   0   0   1  0
139  3  0   0   0   0  0
140  0  0   4  28   0  0
141  0  0   5   0   0  1
142  0  0   6  27   0  0
143  4  0   0   0   0  0
144  0  2   0   0   1  0
145  3  0   0   0   0  0
146  0  0   4  29   0  0
147  0  0   5   0   0  1
148  0  0   6  30   0  0
149  4  0   0   0   0  0
150  0  2   0   0   1  0
151  3  0   0   0   0  0
152  0  0   4  30   0  0
153  0  0   5   0   0  1
154  0  0   6  29   0  0
155  4  0   0   0   0  0
156  0  2   0   0   1  0
157  3  0   0   0   0  0
158  0  0   4  31   0  0
159  0  0   5   0   0  1
160  0  0   6  32   0  0
161  4  0   0   0   0  0
162  0  2   0   0   1  0
163  3  0   0   0   0  0
164  0  0   4  32   0  0
165  0  0   5   0   0  1
166  0  0   6  31   0  0
167  4  0   0   0   0  0
168  0  2   0   0   1  0
169  3  0   0   0   0  0
170  0  0   4  33   0  0
171  0  0   5   0   0  1
172  0  0   6  34   0  0
173  4  0   0   0   0  0
174  0  2   0   0   1  0
175  3  0   0   0   0  0
176  0  0   4  34   0  0
177  0  0   5   0   0  1
178  0  0   6  33   0  0
179  4  0   0   0   0  0
180  0  2   0   0   1  0
181  3  0   0   0   0  0
182  0  0   4  35   0  0
183  0  0   5   0   0  1
184  0  0   6  36   0  0
185  4  0   0   0   0  0
186  0  2   0   0   1  0
187  3  0   0   0   0  0
188  0  0   4  36   0  0
189  0  0   5   0   0  1
190  0  0   6  35   0  0
191  4  0   0   0   0  0
192  0  2   0   0   1  0
193  3  0   0   0   0  0
194  0  0   4  37   0  0
195  0  0   5   0   0  1
196  0  0   6  38   0  0
197  4  0   0   0   0  0
198  0  2   0   0   1  0
199  3  0   0   0   0  0
200  0  0   4  38   0  0
201  0  0   5   0   0  1
202  0  0   6  37   0  0
203  4  0   0   0   0  0
204  0  2   0   0   1  0
205  3  0   0   0   0  0
206  0  0   4  39   0  0
207  0  0   5   0   0  1
208  0  0   6  40   0  0
209  4  0   0   0   0  0
210  0  2   0   0   1  0
211  3  0   0   0   0  0
212  0  0   4  40   0  0
213  0  0   5   0   0  1
214  0  0   6  39   0  0
215  4  0   0   0   0  0
216  0  2   0   0   1  0
217  3  0   0   0   0  0
218  0  0   4  41   0  0
219  0  0   5   0   0  1
220  0  0   6  42   0  0
221  4  0   0   0   0  0
222  0  2   0   0   1  0
223  3  0   0   0   0  0
224  0  0   4  42   0  0
225  0  0   5   0   0  1
226  0  0   6  41   0  0
227  4  0   0   0   0  0
228  0  2   0   0   1  0
229  3  0   0   0   0  0
230  0  0   4  43   0  0
231  0  0   5   0   0  1
232  0  0   6  44   0  0
233  4  0   0   0   0  0
234  0  2   0   0   1  0
235  3  0   0   0   0  0
236  0  0   4  44   0  0
237  0  0   5   0   0  1
238  0  0   6  43   0  0
239  4  0   0   0   0  0
240  0  2   0   0   1  0
241  3  0   0   0   0  0
242  0  0   4  45   0  0
243  0  0   5   0   0  1
244  0  0   6  46   0  0
245  4  0   0   0   0  0
246  0  2   0   0   1  0
247  3  0   0   0   0  0
248  0  0   4  46   0  0
249  0  0   5   0   0  1
250  0  0   6  45   0  0
251  4  0   0   0   0  0
252  0  2   0   0   1  0
253  3  0   0   0   0  0
254  0  0   4  47   0  0
255  0  0   5   0   0  1
256  0  0   6  48   0  0
257  4  0   0   0   0  0
258  0  2   0   0   1  0
259  3  0   0   0   0  0
260  0  0   4  48   0  0
261  0  0   5   0   0  1
262  0  0   6  47   0  0
263  4  0   0   0   0  0
264  0  2   0   0   1  0
265  3  0   0   0   0  0
266  0  0   4  49   0  0
267  0  0   5   0   0  1
268  0  0   6  50   0  0
269  4  0   0   0   0  0
270  0  2   0   0   1  0
271  3  0   0   0   0  0
272  0  0   4  50   0  0
273  0  0   5   0   0  1
274  0  0   6  49   0  0
275  4  0   0   0   0  0
276  0  2   0   0   1  0
277  3  0   0   0   0  0
278  0  0   4  51   0  0
279  0  0   5   0   0  1
280  0  0   6  52   0  0
281  4  0   0   0   0  0
282  0  2   0   0   1  0
283  3  0   0   0   0  0
284  0  0   4  52   0  0
285  0  0   5   0   0  1
286  0  0   6  51   0  0
287  4  0   0   0   0  0
288  0  2   0   0   1  0
289  3  0   0   0   0  0
290  0  0   4  53   0  0
291  0  0   5   0   0  1
292  0  0   6  54   0  0
293  4  0   0   0   0  0
294  0  2   0   0   1  0
295  3  0   0   0   0  0
296  0  0   4  54   0  0
297  0  0   5   0   0  1
298  0  0   6  53   0  0
299  4  0   0   0   0  0
300  0  2   0   0   1  0
301  3  0   0   0   0  0
302  0  0   4  55   0  0
303  0  0   5   0   0  1
304  0  0   6  56   0  0
305  4  0   0   0   0  0
306  0  2   0   0   1  0
307  3  0   0   0   0  0
308  0  0   4  56   0  0
309  0  0   5   0   0  1
310  0  0   6  55   0  0
311  4  0   0   0   0  0
312  0  2   0   0   1  0
313  3  0   0   0   0  0
314  0  0   4  57   0  0
315  0  0   5   0   0  1
316  0  0   6  58   0  0
317  4  0   0   0   0  0
318  0  2   0   0   1  0
319  3  0   0   0   0  0
320  0  0   4  58   0  0
321  0  0   5   0   0  1
322  0  0   6  57   0  0
323  4  0   0   0   0  0
324  0  2   0   0   1  0
325  3  0   0   0   0  0
326  0  0   4  59   0  0
327  0  0   5   0   0  1
328  0  0   6  60   0  0
329  4  0   0   0   0  0
330  0  2   0   0   1  0
331  3  0   0   0   0  0
332  0  0   4  60   0  0
333  0  0   5   0   0  1
334  0  0   6  59   0  0
335  4  0   0   0   0  0
336  0  2   0   0   1  0
337  3  0   0   0   0  0
338  0  0   4  61   0  0
339  0  0   5   0   0  1
340  0  0   6  62   0  0
341  4  0   0   0   0  0
342  0  2   0   0   1  0
343  3  0   0   0   0  0
344  0  0   4  62   0  0
345  0  0   5   0   0  1
346  0  0   6  61   0  0
347  4  0   0   0   0  0
348  0  2   0   0   1  0
349  3  0   0   0   0  0
350  0  0   4  63   0  0
351  0  0   5   0   0  1
352  0  0   6  64   0  0
353  4  0   0   0   0  0
354  0  2   0   0   1  0
355  3  0   0   0   0  0
356  0  0   4  64   0  0
357  0  0   5   0   0  1
358  0  0   6  63   0  0
359  4  0   0   0   0  0
360  0  2   0   0   1  0
361  3  0   0   0   0  0
362  0  0   4  65   0  0
363  0  0   5   0   0  1
364  0  0   6  66   0  0
365  4  0   0   0   0  0
366  0  2   0   0   1  0
367  3  0   0   0   0  0
368  0  0   4  66   0  0
369  0  0   5   0   0  1
370  0  0   6  65   0  0
371  4  0   0   0   0  0
372  0  2   0   0   1  0
373  3  0   0   0   0  0
374  0  0   4  67   0  0
375  0  0   5   0   0  1
376  0  0   6  68   0  0
377  4  0   0   0   0  0
378  0  2   0   0   1  0
379  3  0   0   0   0  0
380  0  0   4  68   0  0
381  0  0   5   0   0  1
382  0  0   6  67   0  0
383  4  0   0   0   0  0
384  0  2   0   0   1  0
385  3  0   0   0   0  0
386  0  0   4  69   0  0
[RF]
1      987.456 1 2 100 0 1.5708
2      1974.91 1 2 100 0 0

# Format of trapezoid gradients:
# id amplitude rise flat fall delay
# ..      Hz/m   us   us   us    us
[TRAP]
 1       500000  60 1000  60  40
 2 -1.47222e+06 180    0 180   0
 3       167832  20 2840  20   0
 4       309166  40  460  40   0
 5      83333.3  10 7680  10  30
 6       330000  40  460  40   0
 7     -9433.96  10  520  10   0
 8      9433.96  10  520  10   0
 9     -18867.9  10  520  10   0
10      18867.9  10  520  10   0
11     -28301.9  10  520  10   0
12      28301.9  10  520  10   0
13     -37735.9  10  520  10   0
14      37735.9  10  520  10   0
15     -47169.8  10  520  10   0
16      47169.8  10  520  10   0
17     -56603.8  10  520  10   0
18      56603.8  10  520  10   0
19     -66037.7  10  520  10   0
20      66037.7  10  520  10   0
21     -75471.7  10  520  10   0
22      75471.7  10  520  10   0
23     -84905.7  10  520  10   0
24      84905.7  10  520  10   0
25     -96153.9  20  500  20   0
26      96153.9  20  500  20   0
27      -105769  20  500  20   0
28       105769  20  500  20   0
29      -115385  20  500  20   0
30       115385  20  500  20   0
31      -125000  20  500  20   0
32       125000  20  500  20   0
33      -134615  20  500  20   0
34       134615  20  500  20   0
35      -144231  20  500  20   0
36       144231  20  500  20   0
37      -153846  20  500  20   0
38       153846  20  500  20   0
39      -163462  20  500  20   0
40       163462  20  500  20   0
41      -176471  30  480  30   0
42       176471  30  480  30   0
43      -186275  30  480  30   0
44       186275  30  480  30   0
45      -196078  30  480  30   0
46       196078  30  480  30   0
47      -205882  30  480  30   0
48       205882  30  480  30   0
49      -215686  30  480  30   0
50       215686  30  480  30   0
51      -225490  30  480  30   0
52       225490  30  480  30   0
53      -235294  30  480  30   0
54       235294  30  480  30   0
55      -245098  30  480  30   0
56       245098  30  480  30   0
57      -254902  30  480  30   0
58       254902  30  480  30   0
59      -270000  40  460  40   0
60       270000  40  460  40   0
61      -280000  40  460  40   0
62       280000  40  460  40   0
63      -290000  40  460  40   0
64       290000  40  460  40   0
65      -300000  40  460  40   0
66       300000  40  460  40   0
67      -310000  40  460  40   0
68       310000  40  460  40   0
69      -320000  40  460  40   0
70       320000  40  460  40   0
71      -330000  40  460  40   0
72      -340000  40  460  40   0
73       340000  40  460  40   0
74      -357143  50  440  50   0
75       357143  50  440  50   0
76      -367347  50  440  50   0
77       367347  50  440  50   0
78      -377551  50  440  50   0
79       377551  50  440  50   0
80      -387755  50  440  50   0
81       387755  50  440  50   0
82      -397959  50  440  50   0
83       397959  50  440  50   0
84      -408163  50  440  50   0
85       408163  50  440  50   0
86      -418367  50  440  50   0
87       418367  50  440  50   0
88      -437500  60  420  60   0
89       437500  60  420  60   0
90      -447917  60  420  60   0
91       447917  60  420  60   0
92      -458333  60  420  60   0
93       458333  60  420  60   0
94      -468750  60  420  60   0
95       468750  60  420  60   0
96      -479167  60  420  60   0
97       479167  60  420  60   0
98      -489583  60  420  60   0
99       489583  60  420  60   0
100      -500000  60  420  60   0
101       500000  60  420  60   0
102      -510417  60  420  60   0
103       510417  60  420  60   0
104      -531915  70  400  70   0
105       531915  70  400  70   0
106      -542553  70  400  70   0
107       542553  70  400  70   0
108      -553192  70  400  70   0
109       553192  70  400  70   0
110      -563830  70  400  70   0
111       563830  70  400  70   0
112      -574468  70  400  70   0
113       574468  70  400  70   0
114      -585106  70  400  70   0
115       585106  70  400  70   0
116      -595745  70  400  70   0
117       595745  70  400  70   0
118      -619565  80  380  80   0
119       619565  80  380  80   0
120      -630435  80  380  80   0
121       630435  80  380  80   0
122      -641304  80  380  80   0
123       641304  80  380  80   0
124      -652174  80  380  80   0
125       652174  80  380  80   0
126      -663044  80  380  80   0
127       663044  80  380  80   0
128      -673913  80  380  80   0
129       673913  80  380  80   0
130      -700000  90  360  90   0
131       700000  90  360  90   0
132      -711111  90  360  90   0
133       711111  90  360  90   0

# Format of ADC events:
# id num dwell delay freq phase
# ..  ..    ns    us   Hz   rad
[ADC]
1 128 60000 10 0 0.785398

# Format of delays:
# id delay (us)
[DELAYS]
1 5000000
2 1520
3 1880
4 0
5 3000000

# Sequence Shapes
[SHAPES]

shape_id 1
num_samples 1020
2e-08
1.4e-07
3.8e-07
7.3e-07
1.22e-06
1.82e-06
2.55e-06
3.39e-06
4.37e-06
5.46e-06
6.69e-06
8.03e-06
9.5e-06
1.11e-05
1.282e-05
1.467e-05
1.665e-05
1.874e-05
2.096e-05
2.331e-05
2.579e-05
2.838e-05
3.111e-05
3.394e-05
3.692e-05
4e-05
4.321e-05
4.655e-05
4.999e-05
5.357e-05
5.724e-05
6.105e-05
6.497e-05
6.9e-05
7.315e-05
7.74e-05
8.176e-05
8.624e-05
9.083e-05
9.55e-05
0.0001003
0.00010518
0.00011018
0.00011526
0.00012044
0.00012572
0.00013109
0.00013655
0.00014209
0.00014771
0.00015343
0.00015921
0.00016508
0.00017102
0.00017703
0.0001831
0.00018926
0.00019546
0.00020173
0.00020805
0.00021443
0.00022085
0.00022734
0.00023385
0.00024041
0.00024701
0.00025364
0.0002603
0.00026699
0.00027369
0.00028043
0.00028717
0.00029393
0.00030069
0.00030746
0.00031423
0.00032099
0.00032775
0.0003345
0.00034122
0.00034792
0.00035461
0.00036127
0.00036788
0.00037446
0.00038101
0.0003875
0.00039394
0.00040033
0.00040666
0.00041292
0.00041911
0.00042524
0.00043128
0.00043723
0.00044311
0.00044889
0.00045457
0.00046015
0.00046563
0.00047099
0.00047623
0.00048136
0.00048636
0.00049123
0.00049597
0.00050056
0.000505
0.00050931
0.00051344
0.00051744
0.00052125
0.0005249
0.00052838
0.00053167
0.00053479
0.00053771
0.00054044
0.00054297
0.00054531
0.00054742
0.00054933
0.00055102
0.00055249
0.00055374
0.00055474
0.00055551
0.00055605
0.00055634
0.00055638
0.00055616
0.00055568
0.00055495
0.00055393
0.00055266
0.00055111
0.00054927
0.00054715
0.00054473
0.00054204
0.00053903
0.00053573
0.00053212
0.00052821
0.00052397
0.00051943
0.00051455
0.00050937
0.00050384
0.00049799
0.0004918
0.00048527
0.0004784
0.00047118
0.00046363
0.0004557
0.00044744
0.0004388
0.00042982
0.00042046
0.00041074
0.00040065
0.00039019
0.00037936
0.00036814
0.00035655
0.00034458
0.00033222
0.00031948
0.00030635
0.00029283
0.00027892
0.00026461
0.00024992
0.00023482
0.00021933
0.00020344
0.00018715
0.00017046
0.00015336
0.00013586
0.00011797
9.966e-05
8.094e-05
6.183e-05
4.231e-05
2.238e-05
2.04e-06
-1.869e-05
-3.985e-05
-6.14e-05
-8.336e-05
-0.00010572
-0.00012849
-0.00015167
-0.00017524
-0.00019923
-0.0002236
-0.00024839
-0.00027356
-0.00029915
-0.00032512
-0.00035149
-0.00037825
-0.00040541
-0.00043295
-0.00046088
-0.00048919
-0.00051789
-0.00054697
-0.00057643
-0.00060626
-0.00063646
-0.00066703
-0.00069798
-0.00072927
-0.00076094
-0.00079295
-0.00082533
-0.00085805
-0.00089111
-0.00092452
-0.00095827
-0.00099235
-0.00102676
-0.00106149
-0.00109655
-0.00113192
-0.00116761
-0.00120359
-0.00123989
-0.00127647
-0.00131336
-0.00135052
-0.00138797
-0.0014257
-0.00146368
-0.00150195
-0.00154047
-0.00157923
-0.00161825
-0.00165751
-0.00169699
-0.00173672
-0.00177666
-0.00181682
-0.00185718
-0.00189775
-0.00193852
-0.00197946
0.0020206
0.0020619
0.00210337
0.00214501
0.0021868
0.00222872
0.00227079
0.00231299
0.00235532
0.00239774
0.00244029
0.00248292
0.00252566
0.00256847
0.00261136
0.00265431
0.00269732
0.00274039
0.00278349
0.00282662
0.00286978
0.00291296
0.00295613
0.00299932
0.00304249
0.00308564
0.00312876
0.00317185
0.00321488
0.00325787
0.00330078
0.00334363
0.0033864
0.00342907
0.00347164
0.0035141
0.00355644
0.00359865
0.00364073
0.00368266
0.00372444
0.00376603
0.00380747
0.00384871
0.00388977
0.00393061
0.00397125
0.00401166
0.00405185
0.00409178
0.00413147
0.00417091
0.00421006
0.00424894
0.00428754
0.00432583
0.00436382
0.00440148
0.00443884
0.00447585
0.00451251
0.00454882
0.00458478
0.00462035
0.00465555
0.00469036
0.00472476
0.00475876
0.00479235
0.0048255
0.00485822
0.0048905
0.00492232
0.00495368
0.00498458
0.00501499
0.00504492
0.00507434
0.00510328
0.00513168
0.00515959
0.00518694
0.00521377
0.00524006
0.00526578
0.00529095
0.00531555
0.00533958
0.00536301
0.00538586
0.00540811
0.00542976
0.00545078
0.00547119
0.00549097
0.00551012
0.00552862
0.00554648
0.00556369
0.00558022
0.0055961
0.0056113
0.00562582
0.00563965
0.00565279
0.00566525
0.00567698
0.00568802
0.00569833
0.00570794
0.00571681
0.00572496
0.00573237
0.00573904
0.00574497
0.00575015
0.00575458
0.00575825
0.00576116
0.00576331
0.00576469
0.0057653
0.00576512
0.00576418
0.00576246
0.00575993
0.00575664
0.00575255
0.00574766
0.00574198
0.00573551
0.00572823
0.00572015
0.00571128
0.00570159
0.0056911
0.00567981
0.00566769
0.00565479
0.00564105
0.00562653
0.00561117
0.00559502
0.00557805
0.00556026
0.00554168
0.00552227
0.00550206
0.00548103
0.00545921
0.00543656
0.00541312
0.00538887
0.00536382
0.00533796
0.00531131
0.00528385
0.00525561
0.00522656
0.00519674
0.00516611
0.00513471
0.00510253
0.00506955
0.00503582
0.00500131
0.00496603
0.00492998
0.00489318
0.00485563
0.00481731
0.00477825
0.00473845
0.00469792
0.00465665
0.00461465
0.00457193
0.00452849
0.00448435
0.0044395
0.00439395
0.00434771
0.00430078
0.00425317
0.00420488
0.00415594
0.00410632
0.00405606
0.00400515
0.0039536
0.00390142
0.00384862
0.00379519
0.00374117
0.00368654
0.00363131
0.0035755
0.00351913
0.00346217
0.00340466
0.0033466
0.00328801
0.00322887
0.00316921
0.00310904
0.00304836
0.00298719
0.00292554
0.00286339
0.0028008
0.00273774
0.00267424
0.00261029
0.00254592
0.00248114
0.00241595
0.00235036
0.00228438
0.00221804
0.00215132
0.00208426
0.00201685
0.00194912
0.00188105
0.00181267
0.00174401
0.00167506
0.00160582
0.00153632
0.00146657
0.00139657
0.00132635
0.00125591
0.00118526
0.00111441
0.00104338
0.00097217
0.00090081
0.00082929
0.00075764
0.00068587
0.00061397
0.00054198
0.0004699
0.00039774
0.00032551
0.00025323
0.00018091
0.00010856
3.619e-05
-3.619e-05
-0.00010856
-0.00018091
-0.00025323
-0.00032551
-0.00039774
-0.0004699
-0.00054198
-0.00061397
-0.00068587
-0.00075764
-0.00082929
-0.00090081
-0.00097217
-0.00104338
-0.00111441
-0.00118526
-0.00125591
-0.00132635
-0.00139657
-0.00146657
-0.00153632
-0.00160582
-0.00167506
-0.00174401
-0.00181267
-0.00188105
-0.00194912
-0.00201685
-0.00208426
-0.00215132
-0.00221804
-0.00228438
-0.00235036
-0.00241595
-0.00248114
-0.00254592
-0.00261029
-0.00267424
-0.00273774
-0.0028008
-0.00286339
-0.00292554
-0.00298719
-0.00304836
-0.00310904
-0.00316921
-0.00322887
-0.00328801
-0.0033466
-0.00340466
-0.00346217
-0.00351913
-0.0035755
-0.00363131
-0.00368654
-0.00374117
-0.00379519
-0.00384862
-0.00390142
-0.0039536
-0.00400515
-0.00405606
-0.00410632
-0.00415594
-0.00420488
-0.00425317
-0.00430078
-0.00434771
-0.00439395
-0.0044395
-0.00448435
-0.00452849
-0.00457193
-0.00461465
-0.00465665
-0.00469792
-0.00473845
-0.00477825
-0.00481731
-0.00485563
-0.00489318
-0.00492998
-0.00496603
-0.00500131
-0.00503582
-0.00506955
-0.00510253
-0.00513471
-0.00516611
-0.00519674
-0.00522656
-0.00525561
-0.00528385
-0.00531131
-0.00533796
-0.00536382
-0.00538887
-0.00541312
-0.00543656
-0.00545921
-0.00548103
-0.00550206
-0.00552227
-0.00554168
-0.00556026
-0.00557805
-0.00559502
-0.00561117
-0.00562653
-0.00564105
-0.00565479
-0.00566769
-0.00567981
-0.0056911
-0.00570159
-0.00571128
-0.00572015
-0.00572823
-0.00573551
-0.00574198
-0.00574766
-0.00575255
-0.00575664
-0.00575993
-0.00576246
-0.00576418
-0.00576512
-0.0057653
-0.00576469
-0.00576331
-0.00576116
-0.00575825
-0.00575458
-0.00575015
-0.00574497
-0.00573904
-0.00573237
-0.00572496
-0.00571681
-0.00570794
-0.00569833
-0.00568802
-0.00567698
-0.00566525
-0.00565279
-0.00563965
-0.00562582
-0.0056113
-0.0055961
-0.00558022
-0.00556369
-0.00554648
-0.00552862
-0.00551012
-0.00549097
-0.00547119
-0.00545078
-0.00542976
-0.00540811
-0.00538586
-0.00536301
-0.00533958
-0.00531555
-0.00529095
-0.00526578
-0.00524006
-0.00521377
-0.00518694
-0.00515959
-0.00513168
-0.00510328
-0.00507434
-0.00504492
-0.00501499
-0.00498458
-0.00495368
-0.00492232
-0.0048905
-0.00485822
-0.0048255
-0.00479235
-0.00475876
-0.00472476
-0.00469036
-0.00465555
-0.00462035
-0.00458478
-0.00454882
-0.00451251
-0.00447585
-0.00443884
-0.00440148
-0.00436382
-0.00432583
-0.00428754
-0.00424894
-0.00421006
-0.00417091
-0.00413147
-0.00409178
-0.00405185
-0.00401166
-0.00397125
-0.00393061
-0.00388977
-0.00384871
-0.00380747
-0.00376603
-0.00372444
-0.00368266
-0.00364073
-0.00359865
-0.00355644
-0.0035141
-0.00347164
-0.00342907
-0.0033864
-0.00334363
-0.00330078
-0.00325787
-0.00321488
-0.00317185
-0.00312876
-0.00308564
-0.00304249
-0.00299932
-0.00295613
-0.00291296
-0.00286978
-0.00282662
-0.00278349
-0.00274039
-0.00269732
-0.00265431
-0.00261136
-0.00256847
-0.00252566
-0.00248292
-0.00244029
-0.00239774
-0.00235532
-0.00231299
-0.00227079
-0.00222872
-0.0021868
-0.00214501
-0.00210337
-0.0020619
-0.0020206
0.00197946
0.00193852
0.00189775
0.00185718
0.00181682
0.00177666
0.00173672
0.00169699
0.00165751
0.00161825
0.00157923
0.00154047
0.00150195
0.00146368
0.0014257
0.00138797
0.00135052
0.00131336
0.00127647
0.00123989
0.00120359
0.00116761
0.00113192
0.00109655
0.00106149
0.00102676
0.00099235
0.00095827
0.00092452
0.00089111
0.00085805
0.00082533
0.00079295
0.00076094
0.00072927
0.00069798
0.00066703
0.00063646
0.00060626
0.00057643
0.00054697
0.00051789
0.00048919
0.00046088
0.00043295
0.00040541
0.00037825
0.00035149
0.00032512
0.00029915
0.00027356
0.00024839
0.0002236
0.00019923
0.00017524
0.00015167
0.00012849
0.00010572
8.336e-05
6.14e-05
3.985e-05
1.869e-05
-2.04e-06
-2.238e-05
-4.231e-05
-6.183e-05
-8.094e-05
-9.966e-05
-0.00011797
-0.00013586
-0.00015336
-0.00017046
-0.00018715
-0.00020344
-0.00021933
-0.00023482
-0.00024992
-0.00026461
-0.00027892
-0.00029283
-0.00030635
-0.00031948
-0.00033222
-0.00034458
-0.00035655
-0.00036814
-0.00037936
-0.00039019
-0.00040065
-0.00041074
-0.00042046
-0.00042982
-0.0004388
-0.00044744
-0.0004557
-0.00046363
-0.00047118
-0.0004784
-0.00048527
-0.0004918
-0.00049799
-0.00050384
-0.00050937
-0.00051455
-0.00051943
-0.00052397
-0.00052821
-0.00053212
-0.00053573
-0.00053903
-0.00054204
-0.00054473
-0.00054715
-0.00054927
-0.00055111
-0.00055266
-0.00055393
-0.00055495
-0.00055568
-0.00055616
-0.00055638
-0.00055634
-0.00055605
-0.00055551
-0.00055474
-0.00055374
-0.00055249
-0.00055102
-0.00054933
-0.00054742
-0.00054531
-0.00054297
-0.00054044
-0.00053771
-0.00053479
-0.00053167
-0.00052838
-0.0005249
-0.00052125
-0.00051744
-0.00051344
-0.00050931
-0.000505
-0.00050056
-0.00049597
-0.00049123
-0.00048636
-0.00048136
-0.00047623
-0.00047099
-0.00046563
-0.00046015
-0.00045457
-0.00044889
-0.00044311
-0.00043723
-0.00043128
-0.00042524
-0.00041911
-0.00041292
-0.00040666
-0.00040033
-0.00039394
-0.0003875
-0.00038101
-0.00037446
-0.00036788
-0.00036127
-0.00035461
-0.00034792
-0.00034122
-0.0003345
-0.00032775
-0.00032099
-0.00031423
-0.00030746
-0.00030069
-0.00029393
-0.00028717
-0.00028043
-0.00027369
-0.00026699
-0.0002603
-0.00025364
-0.00024701
-0.00024041
-0.00023385
-0.00022734
-0.00022085
-0.00021443
-0.00020805
-0.00020173
-0.00019546
-0.00018926
-0.0001831
-0.00017703
-0.00017102
-0.00016508
-0.00015921
-0.00015343
-0.00014771
-0.00014209
-0.00013655
-0.00013109
-0.00012572
-0.00012044
-0.00011526
-0.00011018
-0.00010518
-0.0001003
-9.55e-05
-9.083e-05
-8.624e-05
-8.176e-05
-7.74e-05
-7.315e-05
-6.9e-05
-6.497e-05
-6.105e-05
-5.724e-05
-5.357e-05
-4.999e-05
-4.655e-05
-4.321e-05
-4e-05
-3.692e-05
-3.394e-05
-3.111e-05
-2.838e-05
-2.579e-05
-2.331e-05
-2.096e-05
-1.874e-05
-1.665e-05
-1.467e-05
-1.282e-05
-1.11e-05
-9.5e-06
-8.03e-06
-6.69e-06
-5.46e-06
-4.37e-06
-3.39e-06
-2.55e-06
-1.82e-06
-1.22e-06
-7.3e-07
-3.8e-07
-1.4e-07
-2e-08
0
0
18

shape_id 2
num_samples 1020
0.5
0
0
246
-0.5
0
0
498
0.5
0
0
246
-0.5
0
0
18

